Time (s),Linear Displacement,Angular Displacement
0,-3.38310924,0
0.01,-462.9216008,0.521009049
0.02,-2255.596812,1.026987314
0.03,-5299.660887,1.500521715
0.04,-9464.685459,1.925184491
0.05,-14578.67111,2.285876482
0.06,-20436.57433,2.569202848
0.07,-26809.7484,2.763889497
0.08,-33455.78993,2.861236792
0.09,-40128.31147,2.85559259
0.1,-46586.21781,2.744809927
0.11,-52602.14156,2.530637894
0.12,-57969.78411,2.218980807
0.13,-62510.00094,1.819955611
0.14,-66075.55756,1.347685458
0.15,-68554.5558,0.81979174
0.16,-69872.58388,0.256586388
0.17,-69993.67708,-0.319985425
0.18,-68920.18817,-0.887556388
0.19,-66691.66447,-1.424575718
0.2,-63382.81689,-1.911443249
0.21,-59100.6538,-2.331427236
0.22,-53980.8452,-2.671294724
0.23,-48183.38468,-2.921632096
0.24,-41887.6289,-3.076878157
0.25,-35286.81655,-3.135123782
0.26,-28582.19516,-3.097747498
0.27,-21976.91272,-2.968956941
0.28,-15669.85458,-2.755296387
0.29,-9849.623163,-2.465165654
0.3,-4688.863847,-2.108379866
0.31,-339.1349576,-1.695785579
0.32,3073.49694,-1.238937854
0.33,5451.982962,-0.749835246
0.34,6730.821612,-0.24070486
0.35,6877.517135,0.276172959
0.36,5892.937189,0.788611846
0.37,3810.586842,1.284650199
0.38,694.8601985,1.752676719
0.39,-3361.629389,2.181561011
0.4,-8241.506439,2.560798326
0.41,-13806.71876,2.880675904
0.42,-19903.07624,3.132466094
0.43,-26365.06164,3.308648406
0.44,-33020.73471,3.403158515
0.45,-39696.56231,3.411657034
0.46,-46222.0257,3.331804529
0.47,-52433.8802,3.163522429
0.48,-58179.97078,2.909212831
0.49,-63322.5363,2.573905401
0.5,-67740.96439,2.165298073
0.51,-71333.98519,1.693661944
0.52,-74021.31371,1.171590585
0.53,-75744.7666,0.613589836
0.54,-76468.88828,0.035524029
0.55,-76181.12434,-0.546044919
0.56,-74891.57813,-1.114572474
0.57,-72632.38046,-1.654238568
0.58,-69456.69542,-2.150586047
0.59,-65437.37882,-2.591040647
0.6,-60665.30188,-2.965280573
0.61,-55247.35245,-3.265444499
0.62,-49304.13015,-3.486186041
0.63,-42967.35908,-3.624597355
0.64,-36377.05228,-3.680032976
0.65,-29678.47427,-3.653867429
0.66,-23018.95948,-3.549217877
0.67,-16544.65584,-3.370657812
0.68,-10397.27059,-3.123941221
0.69,-4710.901036,-2.81575011
0.7,390.9655898,-2.453472521
0.71,4798.201236,-2.04501362
0.72,8416.458989,-1.598639147
0.73,11169.20112,-1.122848287
0.74,12999.27855,-0.626271742
0.75,13870.02145,-0.117590088
0.76,13765.81663,0.394532719
0.77,12692.16399,0.901505811
0.78,10675.22105,1.394862798
0.79,7760.860526,1.8663128
0.8,4013.280593,2.307795546
0.81,-486.7799392,2.711544679
0.82,-5644.159024,3.070162965
0.83,-11351.65131,3.376712612
0.84,-17492.57607,3.624823092
0.85,-23943.45689,3.808817798
0.86,-30576.73843,3.923859314
0.87,-37263.46953,3.966111067
0.88,-43875.88854,3.932910521
0.89,-50289.85536,3.822946078
0.9,-56387.08465,3.636426518
0.91,-62057.14601,3.37522865
0.92,-67199.20797,3.043006393
0.93,-71723.51389,2.645243374
0.94,-75552.58777,2.189232198
0.95,-78622.17625,1.683967193
0.96,-80881.9396,1.139943933
0.97,-82295.90818,0.568867665
0.98,-82842.72225,-0.016717121
0.99,-82515.67277,-0.603854059
1,-81322.55758,-1.179629707
1.01,-79285.36457,-1.731622561
1.02,-76439.78875,-2.248313784
1.03,-72834.58715,-2.719432281
1.04,-68530.77255,-3.13621524
1.05,-63600.64625,-3.491575229
1.06,-58126.67056,-3.780174852
1.07,-52200.18434,-3.998418075
1.08,-45919.96855,-4.144372942
1.09,-39390.67393,-4.217643189
1.1,-32721.12828,-4.219206506
1.11,-26022.54673,-4.151235639
1.12,-19406.67349,-4.016915746
1.13,-12983.88818,-3.820268214
1.14,-6861.31338,-3.56598796
1.15,-1140.961986,-3.2592984
1.16,4082.035961,-2.905825981
1.17,8721.088228,-2.511494436
1.18,12699.64023,-2.082437678
1.19,15952.48629,-1.62492951
1.2,18426.8632,-1.14532783
1.21,20083.30253,-0.650030848
1.22,20896.22398,-0.145442745
1.23,20854.25914,0.362053712
1.24,19960.30149,0.866120025
1.25,18231.28577,1.360482585
1.26,15697.70641,1.838953273
1.27,12402.89104,2.295452132
1.28,8402.050845,2.724034166
1.29,3761.134259,3.118922194
1.3,-1444.485304,3.474547621
1.31,-7131.45436,3.785600788
1.32,-13209.98156,4.047092374
1.33,-19585.44119,4.254426882
1.34,-26160.00238,4.403488735
1.35,-32834.24979,4.4907407
1.36,-39508.76415,4.513333304
1.37,-46085.63392,4.469222588
1.38,-52469.8738,4.357291972
1.39,-58570.72994,4.177472223
1.4,-64302.85681,3.930851802
1.41,-69587.35561,3.619768273
1.42,-74352.66895,3.247870475
1.43,-78535.33119,2.820141007
1.44,-82080.57758,2.3428696
1.45,-84942.81867,1.823570424
1.46,-87085.98841,1.270840154
1.47,-88483.77578,0.694158621
1.48,-89119.74962,0.103639368
1.49,-88987.38568,-0.490257261
1.5,-88090.00324,-1.0770316
1.51,-86440.61675,-1.646453428
1.52,-84061.70529,-2.188852527
1.53,-80984.90103,-2.695373699
1.54,-77250.59565,-3.158182913
1.55,-72907.46283,-3.570616475
1.56,-68011.89447,-3.927270643
1.57,-62627.34876,-4.224034203
1.58,-56823.6096,-4.458070507
1.59,-50675.95845,-4.627758141
1.6,-44264.26264,-4.732600595
1.61,-37671.98649,-4.773115339
1.62,-30985.13468,-4.750711796
1.63,-24291.14003,-4.667566208
1.64,-17677.71063,-4.526499679
1.65,-11231.65292,-4.3308639
1.66,-5037.689694,-4.084437489
1.67,822.7075089,-3.791334539
1.68,6272.451076,-3.455925887
1.69,11239.91496,-3.082772855
1.7,15659.93759,-2.676572677
1.71,19474.73155,-2.242114467
1.72,22634.68337,-1.78424442
1.73,25099.02875,-1.307838847
1.74,26836.39113,-0.817783645
1.75,27825.17424,-0.318958851
1.76,28053.80255,0.183773021
1.77,27520.80642,0.685576078
1.78,26234.75205,1.181648744
1.79,24214.01971,1.667231171
1.8,21486.43633,2.13761342
1.81,18088.7719,2.588145482
1.82,14066.11112,3.014250156
1.83,9471.114487,3.411439817
1.84,4363.184358,3.775338099
1.85,-1192.446747,4.101707469
1.86,-7125.687531,4.386483626
1.87,-13362.60043,4.625817561
1.88,-19826.43663,4.816125889
1.89,-26438.67546,4.954149857
1.9,-33120.05077,5.037022951
1.91,-39791.54832,5.062346554
1.92,-46375.35977,5.028272373
1.93,-52795.78064,4.933589505
1.94,-58980.04206,4.777813052
1.95,-64859.06824,4.561270133
1.96,-70368.15414,4.285178135
1.97,-75447.56012,3.951709168
1.98,-80043.02283,3.564034172
1.99,-84106.18366,3.12634008
2,-87594.93767,2.643814071
2.01,-90473.7076,2.12259037
2.02,-92713.64842,1.569657234
2.03,-94292.7882,0.992724579
2.04,-95196.11116,0.400055988
2.05,-95415.58829,-0.199727989
2.06,-94950.1599,-0.797865463
2.07,-93805.67338,-1.385676116
2.08,-91994.778,-1.954778926
2.09,-89536.77758,-2.497292814
2.1,-86457.44005,-3.006010033
2.11,-82788.76267,-3.47453482
2.12,-78568.69036,-3.897382994
2.13,-73840.78503,-4.270041465
2.14,-68653.84334,-4.588989551
2.15,-63061.46151,-4.851686318
2.16,-57121.5463,-5.056529692
2.17,-50895.77281,-5.202793897
2.18,-44448.99094,-5.2905518
2.19,-37848.5841,-5.320588336
2.2,-31163.78515,-5.294310334
2.21,-24464.95614,-5.213657093
2.22,-17822.83975,-5.081014991
2.23,-11307.79138,-4.899138438
2.24,-4989.002144,-4.671078592
2.25,1066.27684,-4.400120574
2.26,6793.49743,-4.089729317
2.27,12131.55363,-3.743503816
2.28,17023.48569,-3.365139234
2.29,21417.13834,-2.958396144
2.3,25265.76309,-2.527076122
2.31,28528.55508,-2.075002826
2.32,31171.11647,-1.606007733
2.33,33165.83914,-1.123919728
2.34,34492.2011,-0.632557774
2.35,35136.97247,-0.13572595
2.36,35094.32834,0.36278981
2.37,34365.86753,0.859223906
2.38,32960.53785,1.349832781
2.39,30894.47,1.830896734
2.4,28190.7238,2.298722374
2.41,24878.95185,2.749646296
2.42,20994.98701,3.180040525
2.43,16580.36113,3.586320308
2.44,11681.76376,3.964954835
2.45,6350.449754,4.312481498
2.46,641.6058988,4.625524268
2.47,-5386.313327,4.900816799
2.48,-11672.27055,5.135230785
2.49,-18153.34046,5.325810048
2.5,-24765.40495,5.469810696
2.51,-31443.83879,5.564747493
2.52,-38124.17688,5.608446322
2.53,-44742.7551,5.599102263
2.54,-51237.31731,5.535342338
2.55,-57547.58267,5.41629146
2.56,-63615.76836,5.24163948
2.57,-69387.06392,5.011706579
2.58,-74810.05505,4.727503604
2.59,-79837.0958,4.390783373
2.6,-84424.62907,4.004078616
2.61,-88533.45708,3.570722098
2.62,-92128.96357,3.094844734
2.63,-95181.29108,2.581348261
2.64,-97665.47645,2.035850184
2.65,-99561.54856,1.464600363
2.66,-100854.5919,0.874370568
2.67,-101534.7795,0.272320369
2.68,-101597.3783,-0.334155235
2.69,-101042.7296,-0.937589483
2.7,-99876.20535,-1.530610768
2.71,-98108.14202,-2.106104468
2.72,-95753.75182,-2.657361826
2.73,-92833.00986,-3.178209186
2.74,-89370.51654,-3.663112622
2.75,-85395.33299,-4.107254995
2.76,-80940.78771,-4.506584574
2.77,-76044.25232,-4.857836223
2.78,-70746.88467,-5.158527722
2.79,-65093.33805,-5.406934859
2.8,-59131.43573,-5.602049573
2.81,-52911.81096,-5.743525598
2.82,-46487.51331,-5.831615887
2.83,-39913.58309,-5.86710568
2.84,-33246.5965,-5.851244479
2.85,-26544.1852,-5.785679541
2.86,-19864.53432,-5.67239286
2.87,-13265.86415,-5.513642981
2.88,-6805.900972,-5.311912497
2.89,-541.3431034,-5.069861615
2.9,5472.671487,-4.790287872
2.91,11183.0894,-4.476091823
2.92,16539.45125,-4.13024833
2.93,21494.37977,-3.755783018
2.94,26004.04021,-3.355753342
2.95,30028.56695,-2.933233753
2.96,33532.45081,-2.491304386
2.97,36484.88182,-2.033042776
2.98,38860.04307,-1.561518077
2.99,40637.35186,-1.079787348
3,41801.6451,-0.590893474
3.01,42343.30672,-0.097864316
3.02,42258.33586,0.396287248
3.03,41548.35514,0.888562752
3.04,40220.55951,1.375977351
3.05,38287.6068,1.855559128
3.06,35767.45205,2.324348792
3.07,32683.12835,2.779400096
3.08,29062.4777,3.21778127
3.09,24937.83611,3.636577802
3.1,20345.67753,4.032896918
3.11,15326.22194,4.403874102
3.12,9923.013017,4.746682052
3.13,4182.47135,5.05854244
3.14,-1846.570792,5.336740887
3.15,-8113.347097,5.578645531
3.16,-14565.6411,5.781729543
3.17,-21150.27045,5.943597926
3.18,-27813.56572,6.062018793
3.19,-34501.83856,6.134959253
3.2,-41161.834,6.160625825
3.21,-47741.16256,6.137509078
3.22,-54188.70818,6.064431911
3.23,-60455.00871,5.940600536
3.24,-66492.60627,5.765656823
3.25,-72256.36574,5.539730238
3.26,-77703.75994,5.263487158
3.27,-82795.12131,4.938174953
3.28,-87493.86013,4.565657882
3.29,-91766.65022,4.148441708
3.3,-95583.58363,3.689683924
3.31,-98918.29603,3.19318682
3.32,-101748.0653,2.663371156
3.33,-104053.8855,2.105229137
3.34,-105820.5191,1.524256492
3.35,-107036.5297,0.926364807
3.36,-107694.2974,0.317776663
3.37,-107790.0189,-0.295092589
3.38,-107323.6938,-0.905761467
3.39,-106299.0981,-1.507811816
3.4,-104723.7451,-2.095015198
3.41,-102608.834,-2.661450611
3.42,-99969.18489,-3.201608669
3.43,-96823.16012,-3.7104784
3.44,-93192.56997,-4.183614213
3.45,-89102.56128,-4.617181913
3.46,-84581.48754,-5.007983995
3.47,-79660.75878,-5.353465598
3.48,-74374.67003,-5.651703332
3.49,-68760.20707,-5.901379809
3.5,-62856.82905,-6.101746953
3.51,-56706.22754,-6.252581206
3.52,-50352.06242,-6.354133552
3.53,-43839.67535,-6.407076971
3.54,-37215.78221,-6.412453505
3.55,-30528.14634,-6.371622697
3.56,-23825.23493,-6.28621273
3.57,-17155.86139,-6.158075175
3.58,-10568.81675,-5.989243934
3.59,-4112.493739,-5.781898674
3.6,2165.492858,-5.538332806
3.61,8218.685558,-5.260925907
3.62,14002.15924,-4.952120365
3.63,19472.8878,-4.614401931
3.64,24590.09839,-4.250283828
3.65,29315.60921,-3.862294047
3.66,33614.1471,-3.452965448
3.67,37453.64127,-3.024828302
3.68,40805.48986,-2.580404927
3.69,43644.79634,-2.1222061
3.7,45950.57303,-1.652728942
3.71,47705.90958,-1.174456003
3.72,48898.10441,-0.689855314
3.73,49518.75799,-0.20138116
3.74,49563.82682,0.288524616
3.75,49033.63795,0.77743098
3.76,47932.86383,1.262915923
3.77,46270.4584,1.742564709
3.78,44059.55511,2.213968308
3.79,41317.32869,2.674722221
3.8,38064.82223,3.122425837
3.81,34326.74225,3.554682543
3.82,30131.22407,3.969100762
3.83,25509.57068,4.363296143
3.84,20495.96824,4.734895122
3.85,15127.1816,5.081540101
3.86,9442.233648,5.400896506
3.87,3482.071858,5.69066198
3.88,-2710.773835,5.948578004
3.89,-9092.53834,6.172444208
3.9,-15618.57005,6.36013565
3.91,-22243.67727,6.509623279
3.92,-28922.46894,6.618997791
3.93,-35609.68648,6.686496967
3.94,-42260.52369,6.710536525
3.95,-48830.93207,6.689744321
3.96,-55277.90918,6.622997616
3.97,-61559.76802,6.509462848
3.98,-67636.38593,6.348637127
3.99,-73469.43169,6.140390363
4,-79022.5702,5.885006644
4.01,-84261.64434,5.583223156
4.02,-89154.83421,5.23626469
4.03,-93672.7941,4.845871538
4.04,-97788.76825,4.414318527
4.05,-101478.6865,3.944422906
4.06,-104721.2411,3.439539096
4.07,-107497.9467,2.903538644
4.08,-109793.1853,2.340774406
4.09,-111594.2368,1.756028714
4.1,-112891.2983,1.154446239
4.11,-113677.4938,0.541453226
4.12,-113948.8733,-0.077334308
4.13,-113704.4052,-0.696209973
4.14,-112945.9615,-1.309480044
4.15,-111678.2954,-1.911565843
4.16,-109909.0127,-2.497101276
4.17,-107648.5359,-3.061021653
4.18,-104910.0602,-3.59864061
4.19,-101709.5015,-4.105712782
4.2,-98065.43365,-4.578480848
4.21,-93999.01533,-5.013706511
4.22,-89533.90475,-5.4086859
4.23,-84696.1606,-5.761250593
4.24,-79514.12868,-6.069756011
4.25,-74018.3131,-6.333059321
4.26,-68241.23148,-6.550489094
4.27,-62217.25362,-6.721809003
4.28,-55982.4238,-6.847177672
4.29,-49574.26679,-6.927106572
4.3,-43031.57822,-6.962417577
4.31,-36394.20031,-6.954201468
4.32,-29702.78407,-6.903778398
4.33,-22998.53965,-6.812661008
4.34,-16322.97649,-6.682520688
4.35,-9717.635403,-6.515157212
4.36,-3223.814734,-6.312471864
4.37,3117.706942,-6.07644399
4.38,9266.94919,-5.809110858
4.39,15185.00652,-5.51255061
4.4,20834.32102,-5.188868072
4.41,26178.94825,-4.840183159
4.42,31184.8137,-4.468621589
4.43,35819.95748,-4.076307648
4.44,40054.76467,-3.665358756
4.45,43862.17912,-3.237881561
4.46,47217.89856,-2.795969379
4.47,50100.54919,-2.34170074
4.48,52491.83788,-1.877138872
4.49,54376.68061,-1.404331953
4.5,55743.30591,-0.925313975
4.51,56583.33234,-0.442106089
4.52,56891.81931,0.043281695
4.53,56667.29086,0.528848572
4.54,55911.73231,1.012600871
4.55,54630.55997,1.492549955
4.56,52832.56433,1.966710195
4.57,50529.82759,2.433097106
4.58,47737.61636,2.889725764
4.59,44474.251,3.3346096
4.6,40760.95289,3.765759682
4.61,36621.67155,4.181184614
4.62,32082.89322,4.578891186
4.63,27173.43321,4.956885903
4.64,21924.21402,5.313177573
4.65,16368.0316,5.645781102
4.66,10539.31207,5.952722691
4.67,4473.8613,6.232046631
4.68,-1791.390217,6.481823878
4.69,-8218.644764,6.700162646
4.7,-14769.49477,6.885221192
4.71,-21405.1778,7.035222993
4.72,-28086.827,7.148474492
4.73,-34775.71495,7.223385519
4.74,-41433.48886,7.258492468
4.75,-48022.39563,7.252484213
4.76,-54505.49501,7.204230631
4.77,-60846.85952,7.112813483
4.78,-67011.76029,6.977559234
4.79,-72966.83773,6.79807319
4.8,-78680.25652,6.574274144
4.81,-84121.84473,6.306428475
4.82,-89263.21692,5.995182451
4.83,-94077.88146,5.641591244
4.84,-98541.33258,5.247143057
4.85,-102631.1279,4.813776625
4.86,-106326.952,4.343890388
4.87,-109610.6679,3.84034174
4.88,-112466.3565,3.306435013
4.89,-114880.3462,2.745897272
4.9,-116841.2332,2.162841492
4.91,-118339.8946,1.561717366
4.92,-119369.4946,0.947250652
4.93,-119925.4849,0.324372696
4.94,-120005.6009,-0.301857609
4.95,-119609.853,-0.926336626
4.96,-118740.5153,-1.544000427
4.97,-117402.1092,-2.149907645
4.98,-115601.3845,-2.739317608
4.99,-113347.2959,-3.307760947
5,-110650.9748,-3.851100397
5.01,-107525.6959,-4.365580164
5.02,-103986.8377,-4.847862899
5.03,-100051.836,-5.295054065
5.04,-95740.12901,-5.704714062
5.05,-91073.09373,-6.074859072
5.06,-86073.97248,-6.403951924
5.07,-80767.7888,-6.69088459
5.08,-75181.25212,-6.934954011
5.09,-69342.65077,-7.135832968
5.1,-63281.7331,-7.293537649
5.11,-57029.57663,-7.408393345
5.12,-50618.44548,-7.480999583
5.13,-44081.63633,-7.512195716
5.14,-37453.31369,-7.503027804
5.15,-30768.33516,-7.454717404
5.16,-24062.0677,-7.368632685
5.17,-17370.19609,-7.246262127
5.18,-10728.52484,-7.089190945
5.19,-4172.775046,-6.899080226
5.2,2261.622364,-6.67764874
5.21,8539.735269,-6.426657289
5.22,14627.33929,-6.147895423
5.23,20491.12526,-5.843170348
5.24,26098.90346,-5.514297808
5.25,31419.80305,-5.163094752
5.26,36424.46468,-4.791373571
5.27,41085.22502,-4.400937729
5.28,45376.29129,-3.993578594
5.29,49273.9044,-3.571073317
5.3,52756.48929,-3.135183599
5.31,55804.79118,-2.687655216
5.32,58401.99646,-2.230218179
5.33,60533.83726,-1.76458742
5.34,62188.67884,-1.292463894
5.35,63357.58896,-0.815536039
5.36,64034.38877,-0.335481484
5.37,64215.68483,0.146031055
5.38,63900.88198,0.627339745
5.39,63092.17709,1.106787556
5.4,61794.53385,1.582720174
5.41,60015.63891,2.053483972
5.42,57765.83979,2.517424099
5.43,55058.06535,2.972882743
5.44,51907.72953,3.418197638
5.45,48332.6194,3.851700876
5.46,44352.76851,4.271718111
5.47,39990.31682,4.676568222
5.48,35269.35851,5.06456353
5.49,30215.77909,5.434010686
5.5,24857.08324,5.783212303
5.51,19222.21491,6.110469488
5.52,13341.37137,6.414085389
5.53,7245.812651,6.692369892
5.54,967.6680714,6.94364563
5.55,-5460.258543,7.166255452
5.56,-12004.68343,7.358571514
5.57,-18632.0357,7.519006147
5.58,-25308.64687,7.646024646
5.59,-32000.93585,7.738160116
5.6,-38675.5879,7.794030469
5.61,-45299.72656,7.812357632
5.62,-51841.07729,7.791988956
5.63,-58268.12197,7.731920761
5.64,-64550.24349,7.631323822
5.65,-70657.85963,7.489570519
5.66,-76562.54591,7.306263195
5.67,-82237.14701,7.081263166
5.68,-87655.87661,6.814719605
5.69,-92794.40572,6.507097395
5.7,-97629.93967,6.159202867
5.71,-102141.2841,5.772206208
5.72,-106308.9006,5.347659235
5.73,-110114.9524,4.887507186
5.74,-113543.3412,4.394093215
5.75,-116579.7356,3.870154449
5.76,-119211.5922,3.318808634
5.77,-121428.1709,2.743530797
5.78,-123220.5437,2.148119739
5.79,-124581.6,1.536654676
5.8,-125506.0476,0.91344288
5.81,-125990.4103,0.282959688
5.82,-126033.0237,-0.35021728
5.83,-125634.0284,-0.981477474
5.84,-124795.3615,-1.606247914
5.85,-123520.7459,-2.220062285
5.86,-121815.6785,-2.818626217
5.87,-119687.4153,-3.397876563
5.88,-117144.9546,-3.954032882
5.89,-114199.0167,-4.483639797
5.9,-110862.0201,-4.983599443
5.91,-107148.0526,-5.451193738
5.92,-103072.8385,-5.884096691
5.93,-98653.69842,-6.280377384
5.94,-93909.50338,-6.638494607
5.95,-88860.62153,-6.957284314
5.96,-83528.85675,-7.235941229
5.97,-77937.37912,-7.473995933
5.98,-72110.64683,-7.671288737
5.99,-66074.31911,-7.827941553
6,-59855.16039,-7.944328808
6.01,-53480.93561,-8.021048323
6.02,-46980.29693,-8.058892874
6.03,-40382.66231,-8.058823016
6.04,-33718.0863,-8.021941585
6.05,-27017.12383,-7.949470155
6.06,-20310.68762,-7.842727622
6.07,-13629.90012,-7.703110982
6.08,-7005.940883,-7.532078298
6.09,-469.8903799,-7.331133801
6.1,5947.428666,-7.101815006
6.11,12215.61132,-6.845681735
6.12,18304.83068,-6.56430687
6.13,24185.99722,-6.259268706
6.14,29830.91592,-5.932144724
6.15,35212.44012,-5.584506648
6.16,40304.62094,-5.217916617
6.17,45082.85096,-4.833924359
6.18,49524.00135,-4.434065208
6.19,53606.55103,-4.019858881
6.2,57310.70725,-3.59280888
6.21,60618.51635,-3.154402438
6.22,63513.96402,-2.706110926
6.23,65983.06423,-2.24939064
6.24,68013.93622,-1.7856839
6.25,69596.86882,-1.316420411
6.26,70724.37184,-0.843018824
6.27,71391.21399,-0.366888451
6.28,71594.44714,0.110568905
6.29,71333.41675,0.587957046
6.3,70609.75855,1.063883437
6.31,69427.38135,1.53695727
6.32,67792.43639,2.005787552
6.33,65713.27337,2.468981267
6.34,63200.3837,2.925141645
6.35,60266.33143,3.372866568
6.36,56925.67237,3.810747164
6.37,53194.86236,4.237366628
6.38,49092.15513,4.651299327
6.39,44637.49093,5.051110233
6.4,39852.37653,5.435354752
6.41,34759.75786,5.802579022
6.42,29383.8861,6.151320747
6.43,23750.17829,6.480110656
6.44,17885.07367,6.787474686
6.45,11815.88668,7.071936974
6.46,5570.657783,7.33202379
6.47,-821.9967219,7.566268509
6.48,-7333.034979,7.773217754
6.49,-13933.13875,7.951438833
6.5,-20592.86053,8.0995286
6.51,-27282.76762,8.216123847
6.52,-33973.58223,8.299913354
6.53,-40636.3167,8.349651671
6.54,-47242.40315,8.364174705
6.55,-53763.81672,8.342417122
6.56,-60173.1919,8.283431541
6.57,-66443.93129,8.18640942
6.58,-72550.30641,8.050703452
6.59,-78467.55037,7.875851181
6.6,-84171.94185,7.661599476
6.61,-89640.88076,7.407929317
6.62,-94852.95512,7.115080271
6.63,-99787.99967,6.783573888
6.64,-104427.1463,6.414235111
6.65,-108752.8665,6.008210729
6.66,-112749.0069,5.566983805
6.67,-116400.8174,5.092383026
6.68,-119694.9731,4.586585915
6.69,-122619.5918,4.05211502
